Frequency	amp(Vo1)	phase(Vo1)
100	35.454804789999997	125.7925868
104.150752	35.42034598	124.5676266
108.47379100000001	35.383350649999997	123.3047086
112.976269	35.343565040000001	122.0008205
117.665634	35.3012035	120.6529013
122.54964200000001	35.254582679999999	119.26084760000001
127.636374	35.198683840000001	117.7981372
132.93424300000001	35.148483470000002	116.3224683
138.45201399999999	35.088560690000001	114.7702407
144.198814	35.022461800000002	113.15323890000001
150.18414899999999	34.948739490000001	111.4688182
156.41792000000001	34.864011949999998	109.7045753
162.91043999999999	34.767421640000002	107.81400840000001
169.672448	34.667397819999998	105.91393050000001
176.71512999999999	34.543311080000002	103.8659332
184.05013700000001	34.388113930000003	101.6961762
191.68960200000001	34.199657520000002	99.424940140000004
199.64616100000001	33.935680859999998	97.930036079999994
207.93297799999999	33.582474269999999	98.214992440000003
216.56376	33.244439669999998	98.587499620000003
225.552785	32.896792910000002	98.936742460000005
234.91492099999999	32.546793280000003	99.275172960000006
244.66565700000001	32.20728003	99.673743270000003
254.82112100000001	31.86423624	100.062532
265.39811400000002	31.523181839999999	100.4705524
276.414131	31.180197809999999	100.9037299
287.88739600000002	30.82961422	101.30707049999999
299.83688799999999	30.49910998	101.79292649999999
312.28237300000001	30.152008080000002	102.2186959
325.24444	29.815924429999999	102.72847230000001
338.744529	29.48211817	103.2650793
352.80497400000002	29.148906759999999	103.79647970000001
367.44903399999998	28.809929749999998	104.3096165
382.70093100000003	28.47826667	104.8991735
398.58589799999999	28.14610953	105.4814908
415.13020899999998	27.824827679999999	106.12487659999999
432.36123500000002	27.496661060000001	106.7623524
450.30747700000001	27.173659480000001	107.415693
468.99862300000001	26.848891330000001	108.09626849999999
488.46559200000002	26.530470210000001	108.802763
508.740587	26.207834980000001	109.5297709
529.85714700000005	25.8878068	110.27377920000001
551.85020299999996	25.583893329999999	111.0510127
574.75613499999997	25.274159699999998	111.8508782
598.61283700000001	24.963077089999999	112.6866715
623.45977000000005	24.666605350000001	113.5309429
649.33803899999998	24.36927618	114.40421019999999
676.29044999999996	24.073271429999998	115.3144119
704.36158899999998	23.782237630000001	116.2340119
733.597891	23.490456269999999	117.14997339999999
764.04771900000003	23.20884525	118.160403
795.76144499999998	22.935886610000001	119.1473247
828.79152799999997	22.66592507	120.17445979999999
863.19260799999995	22.392665409999999	121.1795108
899.02159200000006	22.131098619999999	122.29431750000001
936.33774800000003	21.88125088	123.3810577
975.20280500000001	21.631284340000001	124.5001101
1015.681054	21.38717308	125.62306940000001
1057.839455	21.144279910000002	126.7684192
1101.747746	20.918704179999999	127.9313575
1147.478562	20.694654079999999	129.12250420000001
1195.1075499999999	20.474792749999999	130.29547529999999
1244.7135000000001	20.268243720000001	131.50505129999999
1296.378469	20.066122589999999	132.73975759999999
1350.187923	19.86973695	133.94771180000001
1406.2308740000001	19.676868469999999	135.15378419999999
1464.6000289999999	19.495523890000001	136.41336459999999
1525.3919430000001	19.322922470000002	137.69822389999999
1588.7071780000001	19.160817489999999	138.9342633
1654.650472	19.000299170000002	140.15293109999999
1723.3309079999999	18.848809840000001	141.3862249
1794.8620989999999	18.711280299999999	142.67142319999999
1869.3623709999999	18.57471168	143.82083230000001
1946.954966	18.444709499999998	145.08374259999999
2027.7682359999999	18.32893632	146.32772410000001
2111.9358649999999	18.214303229999999	147.54227470000001
2199.597084	18.11013071	148.68985050000001
2290.896902	18.00490091	149.84341420000001
2385.9863489999998	17.918926849999998	151.0203679
2485.022723	17.829019070000001	152.14861519999999
2588.1698510000001	17.74690013	153.46765780000001
2695.59836	17.67406381	154.85593220000001
2807.4859609999999	17.603152099999999	156.19741540000001
2924.017738	17.494280750000001	157.65909629999999
3045.3864600000002	17.490360859999999	158.879783
3171.7928969999998	17.406441279999999	160.25935269999999
3303.446152	17.39598458	161.47090230000001
3440.5640060000001	17.356846659999999	162.79841759999999
3583.373282	17.31792484	164.1728669
3732.1102169999999	17.214255309999999	165.5097275
3887.0208539999999	17.21701921	166.79145679999999
4048.3614459999999	17.230401579999999	167.98926320000001
4216.3988859999999	17.184138310000002	169.31258399999999
4391.4111439999997	17.230639870000001	170.56439649999999
4573.6877260000001	17.183795320000002	171.79930010000001
4763.5301570000001	17.22271302	173.03995520000001
4961.2524759999997	17.126013369999999	174.2813749
5167.1817579999997	17.13760839	175.6159696
5381.6586539999998	17.21063208	176.81588840000001
5605.037953	17.254545159999999	178.05697910000001
5837.6891729999998	17.211493539999999	179.33304749999999
6079.9971679999999	17.168592350000001	180.4936434
6332.3627669999996	17.182898789999999	181.7082006
6595.2034359999998	17.151988620000001	182.99674659999999
6868.9539690000001	17.325431739999999	184.13693670000001
7154.0672070000001	17.347720370000001	185.36237740000001
7451.0147889999998	17.435872610000001	186.56218179999999
7760.2879279999997	17.487458799999999	187.77208469999999
8082.3982269999997	17.643313670000001	189.0783782
8417.8785260000004	17.61175643	190.2047263
8767.2837799999998	17.671466120000002	191.30982850000001
9131.1919799999996	17.887228069999999	192.63055700000001
9510.2051059999994	17.94559692	193.84741399999999
9904.9501259999997	17.963391510000001	194.91455060000001
10316.080029999999	18.00540767	195.99055319999999
10744.27492	18.107151940000001	197.12818350000001
11190.243119999999	18.414933770000001	198.43017889999999
11654.72235	18.315267160000001	199.291281
12138.480960000001	18.631707330000001	200.71903789999999
12642.31919	18.759604530000001	201.76343130000001
13167.0705	18.95700312	202.86166589999999
13713.602929999999	18.98008772	203.64128249999999
14282.82056	19.025577309999999	204.52555359999999
14875.665010000001	19.42027929	205.9493047
15493.116959999999	19.5821416	206.8774981
16136.19781	19.664670730000001	207.59483109999999
16805.97135	19.851126600000001	208.46396669999999
17503.545529999999	19.98274893	209.2181673
18230.074280000001	20.34136788	210.3407345
18986.759440000002	20.405225179999999	210.8724053
19774.852719999999	20.680600890000001	211.7765909
20595.657790000001	20.836509970000002	212.32201029999999
21450.532449999999	21.181901360000001	213.27301489999999
22340.89084	21.36980582	213.77822689999999
23268.20579	21.43082738	213.8642687
24234.011289999999	21.713850109999999	214.4677925
25239.904979999999	22.054713639999999	215.25411170000001
26287.55082	22.2357008	215.473533
27378.681840000001	22.46536558	215.8006388
28515.102999999999	22.646421220000001	215.74377380000001
29698.694179999999	23.007954420000001	216.43323559999999
30931.4133	23.22215576	216.40427360000001
32215.29953	23.303428889999999	215.85448679999999
33552.476690000003	23.451152579999999	215.57128069999999
34945.156759999998	23.892601200000001	216.19931339999999
36395.643519999998	24.0834689	215.8905268
37906.336389999997	24.365138340000001	215.7466249
39479.734369999998	24.382907190000001	214.7752648
41118.440199999997	24.871444029999999	215.24307870000001
42825.164649999999	25.115250570000001	214.88883469999999
44602.730989999996	25.179114250000001	213.87511710000001
46454.079700000002	25.404327380000002	213.32265509999999
48382.273300000001	25.858963509999999	213.5221497
50390.501429999997	25.963214669999999	212.4238952
52482.086139999999	26.21694166	211.80184850000001
54660.487330000004	26.165783380000001	210.11883040000001
56929.308559999998	26.620276539999999	210.03953989999999
59292.302920000002	26.932270840000001	209.5468071
61753.37932	26.95739506	207.9724258
64316.608890000003	27.04682313	206.6090595
66986.231769999999	27.499952260000001	206.4346085
69766.664059999996	27.56790277	204.819759
72662.505210000003	27.79261546	203.8386026
75678.545530000003	27.678922750000002	201.76826199999999
78819.774210000003	28.129174410000001	201.3132454
82091.387499999997	28.333882509999999	200.08533790000001
85498.797330000001	28.353255570000002	198.4186258
89047.640299999999	28.45226482	196.8985788
92743.786930000002	28.768353399999999	195.99323530000001
96593.351439999999	28.839466080000001	194.35654260000001
100602.7018	28.945301189999999	192.78618610000001
104778.47040000001	28.90157336	190.92256209999999
109127.56479999999	29.222209500000002	189.94711380000001
113657.1792	29.339459219999998	188.34108409999999
118374.80680000001	29.331137160000001	186.6409428
123288.25139999999	29.40008585	184.79496130000001
128405.64079999999	29.610944669999999	183.66603710000001
133735.44039999999	29.61437141	181.86709819999999
139286.46669999999	29.720604260000002	180.28428070000001
145067.90239999999	29.62820455	178.41678329999999
151089.3112	29.82388727	176.9115219
157360.65359999999	29.90955443	175.44542559999999
163892.304	29.87398653	173.7184718
170695.06690000001	29.854352540000001	171.9687615
177780.19570000001	30.00388955	170.522797
185159.4106	30.028039880000001	168.72719090000001
192844.91829999999	30.031317319999999	167.20877770000001
200849.4325	29.914600719999999	165.24839639999999
209186.19409999999	30.013589320000001	163.7717974
217868.99410000001	30.057470559999999	162.16012929999999
226912.1955	30.02738583	160.51353030000001
236330.75779999999	29.947352649999999	158.98380829999999
246140.26130000001	30.001805340000001	157.2291601
256356.93290000001	29.960894289999999	155.83019959999999
266997.67320000002	29.91019674	154.01780389999999
278080.08419999998	29.796431309999999	152.4976255
289622.49859999999	29.81508526	150.89829420000001
301644.01000000001	29.796116120000001	149.30418069999999
314164.50459999999	29.739426999999999	147.60092839999999
327204.69380000001	29.650786790000002	146.0263578
340786.14880000002	29.607874209999999	144.36442840000001
354931.33639999997	29.55628475	142.88081109999999
369663.6557	29.476719979999999	141.16656800000001
385007.47690000001	29.33672812	139.70282589999999
400988.18219999998	29.263294030000001	138.13127779999999
417632.20679999999	29.20804077	136.45315479999999
434967.08360000001	29.117690490000001	134.6596156
453021.48820000002	28.983566440000001	133.14762020000001
471825.28629999998	28.870826130000001	131.5118056
491409.5834	28.77600176	129.8399847
511806.77600000001	28.655763499999999	128.09585319999999
533050.60560000001	28.48046252	126.5478347
555176.21380000003	28.330704610000002	124.9570106
578220.20109999995	28.231369870000002	123.03934630000001
602220.68720000004	28.06293003	121.3650255
627217.37390000001	27.876239850000001	119.5960042
653251.61100000003	27.675234209999999	117.9620656
680366.46479999996	27.480937950000001	115.9474798
708606.78879999998	27.18382476	114.8278499
738019.29870000004	26.884079029999999	113.6600921
768652.64890000003	26.579244710000001	112.58598550000001
800557.51340000005	26.260390709999999	111.51993179999999
833786.66969999997	25.96009905	110.5358499
868395.0858	25.64417877	109.53256589999999
904440.01150000002	25.323894920000001	108.5184996
941981.07259999996	25.001697270000001	107.5934219
981080.37	24.684282	106.7885936
1021802.5820000001	24.358999229999998	105.90819159999999
1064215.0719999999	24.027520039999999	105.0333553
1108388	23.703602740000001	104.3231801
1154394.436	23.370461209999998	103.5698295
1202310.4850000001	23.039255189999999	102.8554487
1252215.4110000001	22.704205000000002	102.132408
1304191.7660000001	22.363236359999998	101.444064
1358325.53	22.033396679999999	100.7921049
1414706.253	21.694493479999998	100.1197337
1473427.2	21.356141000000001	99.559932000000003
1534585.5079999999	21.013475199999998	98.92161256
1598282.345	20.674931829999998	98.429896510000006
1664623.0800000001	20.329342709999999	97.826241879999998
1733717.4550000001	19.98866207	97.337168210000002
1805679.7649999999	19.64331512	96.818825430000004
1880629.0530000001	19.300508520000001	96.399026989999996
1958689.2990000001	18.953302170000001	95.924346510000007
2039989.6329999999	18.607558699999998	95.485705089999996
2124664.5410000002	18.257693929999999	94.997818010000003
2212854.0950000002	17.915948190000002	94.639659690000002
2304704.179	17.567623579999999	94.209756150000004
2400366.7319999998	17.214310900000001	93.859952329999999
2500000	16.87207806	93.50080423
		
		
		
		
		
		
		
		
		
		
		
		
		
		
		
		
		
		
		
		
		
		
		
		
		
		
		
		
		
		
		
		
		
		
		
		
		
		
		
		
		
		
		
		
		
		
		
		
		
		
		
		
		
		
		
		
		
		
		
		
		
		
		
		
		
		
		
		
		
		
		
		
		
		
		
		
		
		
		
		
		
		
		
		
		
		
		
		
		
		
		
		
		
		
		
		
		
		
		
		
		
		
		
		
		
		
		
		
		
		
